# xPDFsuite Configuration #
[PDF]
wavelength = 0.1
dataformat = Qnm
inputfile = MgTi2O4_cryobraket_ly_20190524-200934_temperature_400,63_degK_33b844_0063_dark_corrected_img.chi
backgroundfile = Kapton_cryobraket_ly_20190524-194415_be9f63_0001_dark_corrected_img.chi
mode = xray
bgscale = 1.0
composition = MgTi2O4
outputtype = gr
qmaxinst = 21.8
qmin = 0.1
qmax = 21.79984014
rmax = 100.0
rmin = 0.0
rstep = 0.01
rpoly = 0.9
temperature = 400.63
[Misc]
inputdir = /Volumes/WIN/BNL/BNL_XPD_190524/MgTi2O4_cryobraket_ly/dark_sub
savedir = /Volumes/WIN/BNL/BNL_XPD_190524/MgTi2O4_cryobraket_ly/dark_sub
backgroundfilefull = /Volumes/WIN/BNL/BNL_XPD_190524/Kapton_cryobraket_ly/dark_sub/Kapton_cryobraket_ly_20190524-194415_be9f63_0001_dark_corrected_img.chi

#### start data
#S 1
#L r($\AA$)  G($\AA^{-2}$)
0 0
0.01 3.76831e-05
0.02 7.32209e-05
0.03 0.000104583
0.04 0.000129939
0.05 0.000147751
0.06 0.00015685
0.07 0.000156499
0.08 0.000146434
0.09 0.00012687
0.1 9.84739e-05
0.11 6.22982e-05
0.12 1.96561e-05
0.13 -2.80475e-05
0.14 -7.95419e-05
0.15 -0.000133965
0.16 -0.000191179
0.17 -0.00025212
0.18 -0.000319149
0.19 -0.000396399
0.2 -0.000490077
0.21 -0.000608685
0.22 -0.000763143
0.23 -0.000966751
0.24 -0.00123498
0.25 -0.00158504
0.26 -0.00203524
0.27 -0.00260401
0.28 -0.00330882
0.29 -0.00416467
0.3 -0.00518249
0.31 -0.0063673
0.32 -0.00771629
0.33 -0.00921678
0.34 -0.0108443
0.35 -0.0125609
0.36 -0.0143134
0.37 -0.0160324
0.38 -0.0176315
0.39 -0.0190073
0.4 -0.0200402
0.41 -0.0205955
0.42 -0.0205259
0.43 -0.0196743
0.44 -0.0178782
0.45 -0.014974
0.46 -0.0108029
0.47 -0.00521659
0.48 0.00191626
0.49 0.0107031
0.5 0.0212212
0.51 0.0335109
0.52 0.0475701
0.53 0.0633491
0.54 0.0807468
0.55 0.099608
0.56 0.119723
0.57 0.140826
0.58 0.162603
0.59 0.184689
0.6 0.206682
0.61 0.228144
0.62 0.248617
0.63 0.267633
0.64 0.284722
0.65 0.299433
0.66 0.311342
0.67 0.320069
0.68 0.325287
0.69 0.32674
0.7 0.324248
0.71 0.31772
0.72 0.307157
0.73 0.292655
0.74 0.27441
0.75 0.252709
0.76 0.227928
0.77 0.200522
0.78 0.171014
0.79 0.139978
0.8 0.108023
0.81 0.0757768
0.82 0.0438631
0.83 0.012883
0.84 -0.0166049
0.85 -0.0441035
0.86 -0.0691939
0.87 -0.0915509
0.88 -0.110954
0.89 -0.127296
0.9 -0.140587
0.91 -0.150955
0.92 -0.158643
0.93 -0.163997
0.94 -0.167459
0.95 -0.169546
0.96 -0.170834
0.97 -0.171935
0.98 -0.173475
0.99 -0.176069
1 -0.180295
1.01 -0.186675
1.02 -0.195648
1.03 -0.207556
1.04 -0.222627
1.05 -0.240963
1.06 -0.262534
1.07 -0.287178
1.08 -0.314602
1.09 -0.344392
1.1 -0.37603
1.11 -0.408904
1.12 -0.442339
1.13 -0.475616
1.14 -0.508001
1.15 -0.538774
1.16 -0.567255
1.17 -0.592834
1.18 -0.614991
1.19 -0.633323
1.2 -0.647559
1.21 -0.65757
1.22 -0.663382
1.23 -0.665168
1.24 -0.663254
1.25 -0.658097
1.26 -0.650278
1.27 -0.64047
1.28 -0.629424
1.29 -0.617927
1.3 -0.606782
1.31 -0.596764
1.32 -0.588599
1.33 -0.582925
1.34 -0.580268
1.35 -0.581019
1.36 -0.585414
1.37 -0.593523
1.38 -0.605244
1.39 -0.620305
1.4 -0.638274
1.41 -0.658571
1.42 -0.680497
1.43 -0.703253
1.44 -0.725983
1.45 -0.747801
1.46 -0.767835
1.47 -0.785265
1.48 -0.799359
1.49 -0.809508
1.5 -0.81526
1.51 -0.816339
1.52 -0.812669
1.53 -0.80438
1.54 -0.791811
1.55 -0.775504
1.56 -0.756182
1.57 -0.734727
1.58 -0.712149
1.59 -0.68954
1.6 -0.668029
1.61 -0.648734
1.62 -0.632707
1.63 -0.620882
1.64 -0.614025
1.65 -0.612685
1.66 -0.617152
1.67 -0.627427
1.68 -0.643197
1.69 -0.663819
1.7 -0.688328
1.71 -0.71543
1.72 -0.74352
1.73 -0.770755
1.74 -0.795079
1.75 -0.814285
1.76 -0.82608
1.77 -0.828158
1.78 -0.818278
1.79 -0.79434
1.8 -0.754467
1.81 -0.697081
1.82 -0.620967
1.83 -0.525335
1.84 -0.409873
1.85 -0.274777
1.86 -0.12078
1.87 0.0508467
1.88 0.238301
1.89 0.439277
1.9 0.651003
1.91 0.870305
1.92 1.09367
1.93 1.31733
1.94 1.53735
1.95 1.74974
1.96 1.95054
1.97 2.13592
1.98 2.30229
1.99 2.44639
2 2.56538
2.01 2.65689
2.02 2.71913
2.03 2.75089
2.04 2.75158
2.05 2.72125
2.06 2.66061
2.07 2.57095
2.08 2.45414
2.09 2.31257
2.1 2.14907
2.11 1.96685
2.12 1.7694
2.13 1.56039
2.14 1.34357
2.15 1.12271
2.16 0.901468
2.17 0.683297
2.18 0.471399
2.19 0.268633
2.2 0.0774614
2.21 -0.10009
2.22 -0.262462
2.23 -0.408578
2.24 -0.537837
2.25 -0.650102
2.26 -0.745669
2.27 -0.825225
2.28 -0.8898
2.29 -0.940705
2.3 -0.979469
2.31 -1.00777
2.32 -1.02738
2.33 -1.04007
2.34 -1.04758
2.35 -1.05154
2.36 -1.05344
2.37 -1.05457
2.38 -1.056
2.39 -1.05859
2.4 -1.06292
2.41 -1.06936
2.42 -1.07803
2.43 -1.08885
2.44 -1.10156
2.45 -1.11576
2.46 -1.13094
2.47 -1.14652
2.48 -1.1619
2.49 -1.17649
2.5 -1.18974
2.51 -1.2012
2.52 -1.21051
2.53 -1.21742
2.54 -1.22181
2.55 -1.22372
2.56 -1.22327
2.57 -1.22071
2.58 -1.21639
2.59 -1.21069
2.6 -1.20405
2.61 -1.19687
2.62 -1.18954
2.63 -1.18236
2.64 -1.17552
2.65 -1.16907
2.66 -1.16291
2.67 -1.15676
2.68 -1.15014
2.69 -1.14239
2.7 -1.13268
2.71 -1.12
2.72 -1.10321
2.73 -1.08106
2.74 -1.05225
2.75 -1.01543
2.76 -0.969315
2.77 -0.91268
2.78 -0.844443
2.79 -0.763707
2.8 -0.669809
2.81 -0.562365
2.82 -0.441304
2.83 -0.306899
2.84 -0.159781
2.85 -0.00095542
2.86 0.168207
2.87 0.345981
2.88 0.530309
2.89 0.71884
2.9 0.90897
2.91 1.0979
2.92 1.28268
2.93 1.46031
2.94 1.62777
2.95 1.7821
2.96 1.92049
2.97 2.04034
2.98 2.13931
2.99 2.21539
3 2.26694
3.01 2.29275
3.02 2.29206
3.03 2.26459
3.04 2.21053
3.05 2.13055
3.06 2.02581
3.07 1.8979
3.08 1.74883
3.09 1.58098
3.1 1.39706
3.11 1.20004
3.12 0.993104
3.13 0.77959
3.14 0.56291
3.15 0.346499
3.16 0.133748
3.17 -0.0720545
3.18 -0.267778
3.19 -0.4505
3.2 -0.617547
3.21 -0.766538
3.22 -0.895407
3.23 -1.00243
3.24 -1.08625
3.25 -1.14585
3.26 -1.18061
3.27 -1.19026
3.28 -1.17488
3.29 -1.13489
3.3 -1.07104
3.31 -0.984356
3.32 -0.876152
3.33 -0.747981
3.34 -0.601609
3.35 -0.438989
3.36 -0.26223
3.37 -0.0735675
3.38 0.124669
3.39 0.330081
3.4 0.54024
3.41 0.75267
3.42 0.964926
3.43 1.17461
3.44 1.37941
3.45 1.57706
3.46 1.76545
3.47 1.94257
3.48 2.10657
3.49 2.25579
3.5 2.38872
3.51 2.50409
3.52 2.60084
3.53 2.67811
3.54 2.73531
3.55 2.77208
3.56 2.78832
3.57 2.78414
3.58 2.75994
3.59 2.7163
3.6 2.65406
3.61 2.57424
3.62 2.47806
3.63 2.3669
3.64 2.24226
3.65 2.10577
3.66 1.95912
3.67 1.80406
3.68 1.64234
3.69 1.47571
3.7 1.30585
3.71 1.13439
3.72 0.962845
3.73 0.792596
3.74 0.624893
3.75 0.460823
3.76 0.301307
3.77 0.147091
3.78 -0.00125189
3.79 -0.143316
3.8 -0.278855
3.81 -0.407769
3.82 -0.530084
3.83 -0.645936
3.84 -0.755549
3.85 -0.859209
3.86 -0.957241
3.87 -1.04999
3.88 -1.13779
3.89 -1.22096
3.9 -1.29976
3.91 -1.37442
3.92 -1.44509
3.93 -1.51186
3.94 -1.57473
3.95 -1.63366
3.96 -1.68854
3.97 -1.73919
3.98 -1.78542
3.99 -1.82701
4 -1.86374
4.01 -1.8954
4.02 -1.92183
4.03 -1.94289
4.04 -1.95853
4.05 -1.96877
4.06 -1.97373
4.07 -1.97361
4.08 -1.96872
4.09 -1.95945
4.1 -1.94628
4.11 -1.92978
4.12 -1.91058
4.13 -1.88934
4.14 -1.86676
4.15 -1.84354
4.16 -1.82037
4.17 -1.79789
4.18 -1.77667
4.19 -1.75721
4.2 -1.7399
4.21 -1.72503
4.22 -1.71274
4.23 -1.70306
4.24 -1.69588
4.25 -1.69096
4.26 -1.68794
4.27 -1.68634
4.28 -1.68561
4.29 -1.68511
4.3 -1.68416
4.31 -1.68203
4.32 -1.678
4.33 -1.67138
4.34 -1.66151
4.35 -1.64778
4.36 -1.62969
4.37 -1.6068
4.38 -1.5788
4.39 -1.54548
4.4 -1.50672
4.41 -1.46254
4.42 -1.41303
4.43 -1.35838
4.44 -1.29883
4.45 -1.23469
4.46 -1.1663
4.47 -1.09401
4.48 -1.01816
4.49 -0.939085
4.5 -0.857069
4.51 -0.772352
4.52 -0.685122
4.53 -0.595505
4.54 -0.503576
4.55 -0.40936
4.56 -0.312847
4.57 -0.214011
4.58 -0.112823
4.59 -0.00928294
4.6 0.0965622
4.61 0.204589
4.62 0.314572
4.63 0.426165
4.64 0.538876
4.65 0.652055
4.66 0.764884
4.67 0.876374
4.68 0.98537
4.69 1.09056
4.7 1.19051
4.71 1.28366
4.72 1.36841
4.73 1.4431
4.74 1.50611
4.75 1.5559
4.76 1.59104
4.77 1.61028
4.78 1.61264
4.79 1.59738
4.8 1.56411
4.81 1.51283
4.82 1.4439
4.83 1.35812
4.84 1.25671
4.85 1.14131
4.86 1.01396
4.87 0.877051
4.88 0.733331
4.89 0.585796
4.9 0.437656
4.91 0.29225
4.92 0.152967
4.93 0.0231646
4.94 -0.0939256
4.95 -0.195278
4.96 -0.278161
4.97 -0.34021
4.98 -0.3795
4.99 -0.394603
5 -0.384636
5.01 -0.349289
5.02 -0.288843
5.03 -0.204175
5.04 -0.0967364
5.05 0.0314754
5.06 0.177963
5.07 0.339791
5.08 0.513656
5.09 0.695972
5.1 0.882964
5.11 1.0707
5.12 1.25531
5.13 1.43301
5.14 1.6002
5.15 1.75357
5.16 1.89017
5.17 2.00746
5.18 2.10339
5.19 2.17641
5.2 2.22555
5.21 2.25035
5.22 2.25093
5.23 2.22794
5.24 2.18251
5.25 2.11622
5.26 2.03105
5.27 1.92931
5.28 1.81353
5.29 1.68645
5.3 1.55087
5.31 1.40961
5.32 1.26545
5.33 1.121
5.34 0.978688
5.35 0.840685
5.36 0.708856
5.37 0.584727
5.38 0.469463
5.39 0.363857
5.4 0.268323
5.41 0.182913
5.42 0.107335
5.43 0.0409823
5.44 -0.0170305
5.45 -0.0678207
5.46 -0.112691
5.47 -0.153079
5.48 -0.190501
5.49 -0.226502
5.5 -0.262605
5.51 -0.300259
5.52 -0.340802
5.53 -0.385412
5.54 -0.435082
5.55 -0.490592
5.56 -0.552484
5.57 -0.621053
5.58 -0.696339
5.59 -0.778126
5.6 -0.865947
5.61 -0.959099
5.62 -1.05665
5.63 -1.15748
5.64 -1.26028
5.65 -1.36359
5.66 -1.46584
5.67 -1.56537
5.68 -1.66044
5.69 -1.74934
5.7 -1.83033
5.71 -1.90173
5.72 -1.96195
5.73 -2.0095
5.74 -2.04306
5.75 -2.06145
5.76 -2.06372
5.77 -2.04913
5.78 -2.0172
5.79 -1.96771
5.8 -1.90074
5.81 -1.81662
5.82 -1.71601
5.83 -1.59986
5.84 -1.46939
5.85 -1.32613
5.86 -1.17182
5.87 -1.00848
5.88 -0.83829
5.89 -0.663621
5.9 -0.486953
5.91 -0.310841
5.92 -0.13786
5.93 0.0294467
5.94 0.188624
5.95 0.337362
5.96 0.473552
5.97 0.595337
5.98 0.701158
5.99 0.789802
6 0.860428
6.01 0.9126
6.02 0.946298
6.03 0.961926
6.04 0.960305
6.05 0.942652
6.06 0.910555
6.07 0.86593
6.08 0.810972
6.09 0.748093
6.1 0.679856
6.11 0.608905
6.12 0.537883
6.13 0.469361
6.14 0.40576
6.15 0.349276
6.16 0.301819
6.17 0.26495
6.18 0.239837
6.19 0.227217
6.2 0.227377
6.21 0.240141
6.22 0.264884
6.23 0.300546
6.24 0.345674
6.25 0.398469
6.26 0.456847
6.27 0.51851
6.28 0.581024
6.29 0.641903
6.3 0.698693
6.31 0.74906
6.32 0.790869
6.33 0.822259
6.34 0.84171
6.35 0.848097
6.36 0.840731
6.37 0.819389
6.38 0.78432
6.39 0.736244
6.4 0.676328
6.41 0.606152
6.42 0.527659
6.43 0.443087
6.44 0.354903
6.45 0.265715
6.46 0.178194
6.47 0.0949783
6.48 0.0185939
6.49 -0.048632
6.5 -0.104644
6.51 -0.147727
6.52 -0.176554
6.53 -0.190234
6.54 -0.188332
6.55 -0.17088
6.56 -0.138369
6.57 -0.0917295
6.58 -0.0322926
6.59 0.0382592
6.6 0.117953
6.61 0.204598
6.62 0.295859
6.63 0.389337
6.64 0.482655
6.65 0.57353
6.66 0.659851
6.67 0.739745
6.68 0.811629
6.69 0.874261
6.7 0.926767
6.71 0.968658
6.72 0.999836
6.73 1.02058
6.74 1.03153
6.75 1.03362
6.76 1.02807
6.77 1.01631
6.78 0.999917
6.79 0.980533
6.8 0.959831
6.81 0.939429
6.82 0.920806
6.83 0.905261
6.84 0.893862
6.85 0.887404
6.86 0.886384
6.87 0.890978
6.88 0.901039
6.89 0.916103
6.9 0.935409
6.91 0.957925
6.92 0.982391
6.93 1.00736
6.94 1.03125
6.95 1.05241
6.96 1.06917
6.97 1.07987
6.98 1.08298
6.99 1.07708
7 1.06095
7.01 1.03359
7.02 0.994223
7.03 0.94237
7.04 0.87781
7.05 0.800601
7.06 0.711068
7.07 0.609788
7.08 0.497563
7.09 0.375395
7.1 0.244451
7.11 0.106028
7.12 -0.0384842
7.13 -0.187641
7.14 -0.339975
7.15 -0.49403
7.16 -0.648388
7.17 -0.801691
7.18 -0.952662
7.19 -1.10012
7.2 -1.24297
7.21 -1.38024
7.22 -1.51104
7.23 -1.63459
7.24 -1.75019
7.25 -1.85721
7.26 -1.9551
7.27 -2.04337
7.28 -2.12157
7.29 -2.1893
7.3 -2.24621
7.31 -2.29196
7.32 -2.3263
7.33 -2.34901
7.34 -2.35992
7.35 -2.35896
7.36 -2.34614
7.37 -2.32159
7.38 -2.28554
7.39 -2.23839
7.4 -2.18068
7.41 -2.1131
7.42 -2.03652
7.43 -1.95197
7.44 -1.86066
7.45 -1.76392
7.46 -1.66322
7.47 -1.56014
7.48 -1.45634
7.49 -1.35349
7.5 -1.25328
7.51 -1.15734
7.52 -1.0672
7.53 -0.984268
7.54 -0.909745
7.55 -0.844616
7.56 -0.789601
7.57 -0.745128
7.58 -0.711308
7.59 -0.687919
7.6 -0.674408
7.61 -0.669893
7.62 -0.673176
7.63 -0.682774
7.64 -0.696953
7.65 -0.713769
7.66 -0.731122
7.67 -0.746813
7.68 -0.758604
7.69 -0.764283
7.7 -0.761725
7.71 -0.748957
7.72 -0.724215
7.73 -0.685994
7.74 -0.633099
7.75 -0.564676
7.76 -0.480245
7.77 -0.37971
7.78 -0.263368
7.79 -0.131904
7.8 0.0136303
7.81 0.171836
7.82 0.341009
7.83 0.51918
7.84 0.704167
7.85 0.893629
7.86 1.08512
7.87 1.27616
7.88 1.46428
7.89 1.64706
7.9 1.82224
7.91 1.9877
7.92 2.14152
7.93 2.28202
7.94 2.40779
7.95 2.51768
7.96 2.61082
7.97 2.68659
7.98 2.74467
7.99 2.78496
8 2.80759
8.01 2.81289
8.02 2.80136
8.03 2.77363
8.04 2.73043
8.05 2.67258
8.06 2.60094
8.07 2.51639
8.08 2.41981
8.09 2.31208
8.1 2.19404
8.11 2.06649
8.12 1.93023
8.13 1.78599
8.14 1.63451
8.15 1.47649
8.16 1.31265
8.17 1.1437
8.18 0.9704
8.19 0.793522
8.2 0.613898
8.21 0.432415
8.22 0.25002
8.23 0.067721
8.24 -0.113414
8.25 -0.292266
8.26 -0.467675
8.27 -0.638459
8.28 -0.803425
8.29 -0.961401
8.3 -1.11125
8.31 -1.2519
8.32 -1.38236
8.33 -1.50177
8.34 -1.60939
8.35 -1.70462
8.36 -1.78706
8.37 -1.85646
8.38 -1.91279
8.39 -1.95617
8.4 -1.98692
8.41 -2.00556
8.42 -2.01273
8.43 -2.00923
8.44 -1.99599
8.45 -1.97402
8.46 -1.94439
8.47 -1.90822
8.48 -1.86661
8.49 -1.82066
8.5 -1.7714
8.51 -1.71981
8.52 -1.66672
8.53 -1.61288
8.54 -1.55888
8.55 -1.50517
8.56 -1.45205
8.57 -1.39968
8.58 -1.34807
8.59 -1.2971
8.6 -1.24655
8.61 -1.19607
8.62 -1.14526
8.63 -1.09365
8.64 -1.04074
8.65 -0.986022
8.66 -0.929009
8.67 -0.869239
8.68 -0.806309
8.69 -0.739887
8.7 -0.669728
8.71 -0.59568
8.72 -0.517691
8.73 -0.435814
8.74 -0.350203
8.75 -0.261109
8.76 -0.168871
8.77 -0.0739042
8.78 0.0233092
8.79 0.122239
8.8 0.222322
8.81 0.322977
8.82 0.423622
8.83 0.523688
8.84 0.622637
8.85 0.71997
8.86 0.815238
8.87 0.908052
8.88 0.998086
8.89 1.08508
8.9 1.16884
8.91 1.24924
8.92 1.32621
8.93 1.39972
8.94 1.46979
8.95 1.53649
8.96 1.59987
8.97 1.66003
8.98 1.71704
8.99 1.77096
9 1.82184
9.01 1.86967
9.02 1.91441
9.03 1.95597
9.04 1.9942
9.05 2.02888
9.06 2.05976
9.07 2.0865
9.08 2.10872
9.09 2.12599
9.1 2.13782
9.11 2.14371
9.12 2.14311
9.13 2.13549
9.14 2.12029
9.15 2.09697
9.16 2.06502
9.17 2.02399
9.18 1.97345
9.19 1.91306
9.2 1.84255
9.21 1.76177
9.22 1.67064
9.23 1.56922
9.24 1.45767
9.25 1.33629
9.26 1.20551
9.27 1.0659
9.28 0.918148
9.29 0.763085
9.3 0.601662
9.31 0.434945
9.32 0.26411
9.33 0.0904277
9.34 -0.0847529
9.35 -0.260018
9.36 -0.433909
9.37 -0.604941
9.38 -0.771626
9.39 -0.932493
9.4 -1.08611
9.41 -1.23111
9.42 -1.36621
9.43 -1.49022
9.44 -1.6021
9.45 -1.70093
9.46 -1.78596
9.47 -1.8566
9.48 -1.91246
9.49 -1.95333
9.5 -1.97917
9.51 -1.99018
9.52 -1.98671
9.53 -1.9693
9.54 -1.93867
9.55 -1.89569
9.56 -1.84137
9.57 -1.77684
9.58 -1.70334
9.59 -1.62217
9.6 -1.53468
9.61 -1.44225
9.62 -1.34627
9.63 -1.24808
9.64 -1.14899
9.65 -1.05024
9.66 -0.952966
9.67 -0.858209
9.68 -0.766882
9.69 -0.67977
9.7 -0.597519
9.71 -0.520634
9.72 -0.449478
9.73 -0.384279
9.74 -0.325138
9.75 -0.272036
9.76 -0.224851
9.77 -0.183376
9.78 -0.147332
9.79 -0.11639
9.8 -0.0901922
9.81 -0.068369
9.82 -0.0505607
9.83 -0.0364346
9.84 -0.0257015
9.85 -0.0181302
9.86 -0.0135581
9.87 -0.0119002
9.88 -0.0131531
9.89 -0.0173964
9.9 -0.0247899
9.91 -0.0355675
9.92 -0.0500265
9.93 -0.0685151
9.94 -0.0914154
9.95 -0.119125
9.96 -0.152036
9.97 -0.190512
9.98 -0.234868
9.99 -0.285343
10 -0.342082
10.01 -0.405114
10.02 -0.474333
10.03 -0.549483
10.04 -0.630147
10.05 -0.715739
10.06 -0.805503
10.07 -0.898512
10.08 -0.993676
10.09 -1.08976
10.1 -1.18539
10.11 -1.27909
10.12 -1.3693
10.13 -1.45441
10.14 -1.5328
10.15 -1.60288
10.16 -1.6631
10.17 -1.71204
10.18 -1.74839
10.19 -1.77099
10.2 -1.77899
10.21 -1.77178
10.22 -1.74898
10.23 -1.71054
10.24 -1.65671
10.25 -1.58804
10.26 -1.50545
10.27 -1.41011
10.28 -1.30354
10.29 -1.18749
10.3 -1.06396
10.31 -0.935144
10.32 -0.803398
10.33 -0.671161
10.34 -0.540919
10.35 -0.415138
10.36 -0.296207
10.37 -0.186377
10.38 -0.0876978
10.39 -0.00196737
10.4 0.0693222
10.41 0.125028
10.42 0.164394
10.43 0.187079
10.44 0.193173
10.45 0.18321
10.46 0.158157
10.47 0.11941
10.48 0.068759
10.49 0.00835956
10.5 -0.0593162
10.51 -0.131532
10.52 -0.205351
10.53 -0.2777
10.54 -0.345443
10.55 -0.405458
10.56 -0.454707
10.57 -0.490315
10.58 -0.509634
10.59 -0.510317
10.6 -0.490369
10.61 -0.448203
10.62 -0.382681
10.63 -0.293139
10.64 -0.179417
10.65 -0.0418569
10.66 0.118695
10.67 0.300905
10.68 0.502978
10.69 0.722698
10.7 0.957466
10.71 1.20436
10.72 1.4602
10.73 1.7216
10.74 1.98505
10.75 2.24697
10.76 2.50379
10.77 2.75203
10.78 2.98834
10.79 3.20958
10.8 3.41283
10.81 3.59552
10.82 3.75536
10.83 3.89047
10.84 3.99932
10.85 4.0808
10.86 4.13419
10.87 4.15914
10.88 4.15572
10.89 4.12434
10.9 4.06573
10.91 3.98095
10.92 3.87131
10.93 3.73838
10.94 3.5839
10.95 3.40979
10.96 3.21808
10.97 3.0109
10.98 2.79043
10.99 2.55886
11 2.31839
11.01 2.07119
11.02 1.81939
11.03 1.56505
11.04 1.31012
11.05 1.05652
11.06 0.80602
11.07 0.560311
11.08 0.320972
11.09 0.0894728
11.1 -0.13283
11.11 -0.344692
11.12 -0.544979
11.13 -0.732674
11.14 -0.906871
11.15 -1.06678
11.16 -1.21173
11.17 -1.34117
11.18 -1.45465
11.19 -1.55188
11.2 -1.63266
11.21 -1.69691
11.22 -1.74471
11.23 -1.77623
11.24 -1.79178
11.25 -1.79176
11.26 -1.77672
11.27 -1.74729
11.28 -1.70419
11.29 -1.64826
11.3 -1.58038
11.31 -1.50152
11.32 -1.41269
11.33 -1.31494
11.34 -1.20935
11.35 -1.09702
11.36 -0.979038
11.37 -0.856488
11.38 -0.730441
11.39 -0.601939
11.4 -0.471994
11.41 -0.341584
11.42 -0.21165
11.43 -0.0830963
11.44 0.0432071
11.45 0.166422
11.46 0.285739
11.47 0.40037
11.48 0.509547
11.49 0.612515
11.5 0.708531
11.51 0.796857
11.52 0.876765
11.53 0.947534
11.54 1.00846
11.55 1.05884
11.56 1.09803
11.57 1.12539
11.58 1.14034
11.59 1.14239
11.6 1.13109
11.61 1.10613
11.62 1.06729
11.63 1.0145
11.64 0.947834
11.65 0.86753
11.66 0.774009
11.67 0.667881
11.68 0.549943
11.69 0.42119
11.7 0.282803
11.71 0.136147
11.72 -0.0172463
11.73 -0.175697
11.74 -0.337399
11.75 -0.500447
11.76 -0.662871
11.77 -0.822666
11.78 -0.977832
11.79 -1.12641
11.8 -1.26654
11.81 -1.39644
11.82 -1.51453
11.83 -1.61939
11.84 -1.70984
11.85 -1.78491
11.86 -1.84395
11.87 -1.88653
11.88 -1.91253
11.89 -1.92209
11.9 -1.91574
11.91 -1.89421
11.92 -1.85852
11.93 -1.80987
11.94 -1.7497
11.95 -1.67959
11.96 -1.60125
11.97 -1.51649
11.98 -1.42714
11.99 -1.33504
12 -1.242
12.01 -1.14971
12.02 -1.05976
12.03 -0.973564
12.04 -0.892352
12.05 -0.817129
12.06 -0.74866
12.07 -0.687455
12.08 -0.633763
12.09 -0.587567
12.1 -0.548594
12.11 -0.516321
12.12 -0.489999
12.13 -0.46867
12.14 -0.451202
12.15 -0.436317
12.16 -0.422629
12.17 -0.408681
12.18 -0.392989
12.19 -0.37408
12.2 -0.350531
12.21 -0.321014
12.22 -0.284329
12.23 -0.239439
12.24 -0.185503
12.25 -0.121901
12.26 -0.0482523
12.27 0.035563
12.28 0.129399
12.29 0.232836
12.3 0.345186
12.31 0.4655
12.32 0.592581
12.33 0.725004
12.34 0.861142
12.35 0.999193
12.36 1.13722
12.37 1.27317
12.38 1.40494
12.39 1.5304
12.4 1.64744
12.41 1.754
12.42 1.84812
12.43 1.928
12.44 1.99199
12.45 2.03865
12.46 2.06679
12.47 2.07546
12.48 2.06399
12.49 2.03199
12.5 1.97938
12.51 1.90635
12.52 1.8134
12.53 1.70127
12.54 1.57101
12.55 1.42386
12.56 1.26129
12.57 1.08496
12.58 0.896665
12.59 0.698321
12.6 0.491927
12.61 0.279525
12.62 0.0631727
12.63 -0.155094
12.64 -0.373288
12.65 -0.5895
12.66 -0.801916
12.67 -1.00884
12.68 -1.20872
12.69 -1.40012
12.7 -1.58177
12.71 -1.75254
12.72 -1.91146
12.73 -2.05767
12.74 -2.19047
12.75 -2.30925
12.76 -2.41351
12.77 -2.50287
12.78 -2.57699
12.79 -2.63562
12.8 -2.67856
12.81 -2.70567
12.82 -2.71683
12.83 -2.71198
12.84 -2.69112
12.85 -2.65426
12.86 -2.60152
12.87 -2.53304
12.88 -2.44907
12.89 -2.34998
12.9 -2.23621
12.91 -2.10838
12.92 -1.96723
12.93 -1.81367
12.94 -1.6488
12.95 -1.47386
12.96 -1.29032
12.97 -1.09981
12.98 -0.904111
12.99 -0.705188
13 -0.505122
13.01 -0.306103
13.02 -0.11039
13.03 0.0797249
13.04 0.261963
13.05 0.434105
13.06 0.594038
13.07 0.739805
13.08 0.869653
13.09 0.982081
13.1 1.07588
13.11 1.15016
13.12 1.2044
13.13 1.23845
13.14 1.25256
13.15 1.24734
13.16 1.22383
13.17 1.1834
13.18 1.12777
13.19 1.05895
13.2 0.979228
13.21 0.891063
13.22 0.797067
13.23 0.699924
13.24 0.602328
13.25 0.506912
13.26 0.416187
13.27 0.332477
13.28 0.257862
13.29 0.194131
13.3 0.142738
13.31 0.104772
13.32 0.0809373
13.33 0.0715444
13.34 0.0765125
13.35 0.0953846
13.36 0.127353
13.37 0.171293
13.38 0.225811
13.39 0.289295
13.4 0.359971
13.41 0.435965
13.42 0.515367
13.43 0.596293
13.44 0.676946
13.45 0.755672
